freq(Hz)	2.50e+14	eps_r	100000000.0	mu_r	0.0	sigma	0.00e+00
theta(rad)	RCS(m^2)
0.000000000e+00	1.032643277e-12
1.050699884e-02	1.032694513e-12
2.101399768e-02	1.032848150e-12
3.152099652e-02	1.033103968e-12
4.202799537e-02	1.033461601e-12
5.253499421e-02	1.033920537e-12
6.304199305e-02	1.034480116e-12
7.354899189e-02	1.035139533e-12
8.405599073e-02	1.035897835e-12
9.456298957e-02	1.036753924e-12
1.050699884e-01	1.037706552e-12
1.155769873e-01	1.038754325e-12
1.260839861e-01	1.039895702e-12
1.365909849e-01	1.041128993e-12
1.470979838e-01	1.042452360e-12
1.576049826e-01	1.043863819e-12
1.681119815e-01	1.045361234e-12
1.786189803e-01	1.046942325e-12
1.891259791e-01	1.048604660e-12
1.996329780e-01	1.050345659e-12
2.101399768e-01	1.052162596e-12
2.206469757e-01	1.054052595e-12
2.311539745e-01	1.056012631e-12
2.416609734e-01	1.058039534e-12
2.521679722e-01	1.060129983e-12
2.626749710e-01	1.062280514e-12
2.731819699e-01	1.064487514e-12
2.836889687e-01	1.066747226e-12
2.941959676e-01	1.069055749e-12
3.047029664e-01	1.071409038e-12
3.152099652e-01	1.073802907e-12
3.257169641e-01	1.076233030e-12
3.362239629e-01	1.078694941e-12
3.467309618e-01	1.081184038e-12
3.572379606e-01	1.083695587e-12
3.677449595e-01	1.086224719e-12
3.782519583e-01	1.088766439e-12
3.887589571e-01	1.091315624e-12
3.992659560e-01	1.093867030e-12
4.097729548e-01	1.096415294e-12
4.202799537e-01	1.098954937e-12
4.307869525e-01	1.101480370e-12
4.412939513e-01	1.103985899e-12
4.518009502e-01	1.106465730e-12
4.623079490e-01	1.108913971e-12
4.728149479e-01	1.111324643e-12
4.833219467e-01	1.113691683e-12
4.938289455e-01	1.116008952e-12
5.043359444e-01	1.118270239e-12
5.148429432e-01	1.120469275e-12
5.253499421e-01	1.122599733e-12
5.358569409e-01	1.124655241e-12
5.463639398e-01	1.126629392e-12
5.568709386e-01	1.128515749e-12
5.673779374e-01	1.130307856e-12
5.778849363e-01	1.131999251e-12
5.883919351e-01	1.133583473e-12
5.988989340e-01	1.135054072e-12
6.094059328e-01	1.136404627e-12
6.199129316e-01	1.137628751e-12
6.304199305e-01	1.138720104e-12
6.409269293e-01	1.139672410e-12
6.514339282e-01	1.140479465e-12
6.619409270e-01	1.141135156e-12
6.724479259e-01	1.141633469e-12
6.829549247e-01	1.141968505e-12
6.934619235e-01	1.142134498e-12
7.039689224e-01	1.142125827e-12
7.144759212e-01	1.141937028e-12
7.249829201e-01	1.141562817e-12
7.354899189e-01	1.140998100e-12
7.459969177e-01	1.140237989e-12
7.565039166e-01	1.139277823e-12
7.670109154e-01	1.138113178e-12
7.775179143e-01	1.136739889e-12
7.880249131e-01	1.135154061e-12
7.985319119e-01	1.133352092e-12
8.090389108e-01	1.131330685e-12
8.195459096e-01	1.129086866e-12
8.300529085e-01	1.126618000e-12
8.405599073e-01	1.123921809e-12
8.510669062e-01	1.120996388e-12
8.615739050e-01	1.117840219e-12
8.720809038e-01	1.114452191e-12
8.825879027e-01	1.110831611e-12
8.930949015e-01	1.106978223e-12
9.036019004e-01	1.102892221e-12
9.141088992e-01	1.098574264e-12
9.246158980e-01	1.094025488e-12
9.351228969e-01	1.089247525e-12
9.456298957e-01	1.084242509e-12
9.561368946e-01	1.079013093e-12
9.666438934e-01	1.073562455e-12
9.771508923e-01	1.067894318e-12
9.876578911e-01	1.062012948e-12
9.981648899e-01	1.055923172e-12
1.008671889e+00	1.049630382e-12
1.019178888e+00	1.043140543e-12
1.029685886e+00	1.036460198e-12
1.040192885e+00	1.029596471e-12
1.050699884e+00	1.022557077e-12
1.061206883e+00	1.015350318e-12
1.071713882e+00	1.007985085e-12
1.082220881e+00	1.000470860e-12
1.092727880e+00	9.928177157e-13
1.103234878e+00	9.850363071e-13
1.113741877e+00	9.771378725e-13
1.124248876e+00	9.691342254e-13
1.134755875e+00	9.610377475e-13
1.145262874e+00	9.528613802e-13
1.155769873e+00	9.446186142e-13
1.166276871e+00	9.363234779e-13
1.176783870e+00	9.279905235e-13
1.187290869e+00	9.196348127e-13
1.197797868e+00	9.112718998e-13
1.208304867e+00	9.029178141e-13
1.218811866e+00	8.945890395e-13
1.229318864e+00	8.863024944e-13
1.239825863e+00	8.780755081e-13
1.250332862e+00	8.699257974e-13
1.260839861e+00	8.618714404e-13
1.271346860e+00	8.539308500e-13
1.281853859e+00	8.461227450e-13
1.292360857e+00	8.384661209e-13
1.302867856e+00	8.309802184e-13
1.313374855e+00	8.236844914e-13
1.323881854e+00	8.165985739e-13
1.334388853e+00	8.097422450e-13
1.344895852e+00	8.031353941e-13
1.355402851e+00	7.967979843e-13
1.365909849e+00	7.907500155e-13
1.376416848e+00	7.850114864e-13
1.386923847e+00	7.796023564e-13
1.397430846e+00	7.745425063e-13
1.407937845e+00	7.698516998e-13
1.418444844e+00	7.655495434e-13
1.428951842e+00	7.616554471e-13
1.439458841e+00	7.581885846e-13
1.449965840e+00	7.551678544e-13
1.460472839e+00	7.526118401e-13
1.470979838e+00	7.505387719e-13
1.481486837e+00	7.489664885e-13
1.491993835e+00	7.479123994e-13
1.502500834e+00	7.473934485e-13
1.513007833e+00	7.474260787e-13
1.523514832e+00	7.480261968e-13
1.534021831e+00	7.492091408e-13
1.544528830e+00	7.509896480e-13
1.555035829e+00	7.533818249e-13
1.565542827e+00	7.563991184e-13
1.576049826e+00	7.600542895e-13
1.586556825e+00	7.643593885e-13
1.597063824e+00	7.693257324e-13
1.607570823e+00	7.749638846e-13
1.618077822e+00	7.812836369e-13
1.628584820e+00	7.882939938e-13
1.639091819e+00	7.960031597e-13
1.649598818e+00	8.044185286e-13
1.660105817e+00	8.135466759e-13
1.670612816e+00	8.233933542e-13
1.681119815e+00	8.339634909e-13
1.691626813e+00	8.452611892e-13
1.702133812e+00	8.572897319e-13
1.712640811e+00	8.700515886e-13
1.723147810e+00	8.835484249e-13
1.733654809e+00	8.977811157e-13
1.744161808e+00	9.127497607e-13
1.754668807e+00	9.284537033e-13
1.765175805e+00	9.448915524e-13
1.775682804e+00	9.620612067e-13
1.786189803e+00	9.799598821e-13
1.796696802e+00	9.985841416e-13
1.807203801e+00	1.017929928e-12
1.817710800e+00	1.037992600e-12
1.828217798e+00	1.058766967e-12
1.838724797e+00	1.080247333e-12
1.849231796e+00	1.102427533e-12
1.859738795e+00	1.125300982e-12
1.870245794e+00	1.148860718e-12
1.880752793e+00	1.173099447e-12
1.891259791e+00	1.198009595e-12
1.901766790e+00	1.223583354e-12
1.912273789e+00	1.249812735e-12
1.922780788e+00	1.276689614e-12
1.933287787e+00	1.304205790e-12
1.943794786e+00	1.332353028e-12
1.954301785e+00	1.361123117e-12
1.964808783e+00	1.390507916e-12
1.975315782e+00	1.420499405e-12
1.985822781e+00	1.451089734e-12
1.996329780e+00	1.482271269e-12
2.006836779e+00	1.514036639e-12
2.017343778e+00	1.546378779e-12
2.027850776e+00	1.579290970e-12
2.038357775e+00	1.612766883e-12
2.048864774e+00	1.646800608e-12
2.059371773e+00	1.681386693e-12
2.069878772e+00	1.716520173e-12
2.080385771e+00	1.752196593e-12
2.090892769e+00	1.788412034e-12
2.101399768e+00	1.825163131e-12
2.111906767e+00	1.862447085e-12
2.122413766e+00	1.900261676e-12
2.132920765e+00	1.938605267e-12
2.143427764e+00	1.977476802e-12
2.153934762e+00	2.016875806e-12
2.164441761e+00	2.056802371e-12
2.174948760e+00	2.097257145e-12
2.185455759e+00	2.138241309e-12
2.195962758e+00	2.179756553e-12
2.206469757e+00	2.221805047e-12
2.216976756e+00	2.264389401e-12
2.227483754e+00	2.307512628e-12
2.237990753e+00	2.351178096e-12
2.248497752e+00	2.395389473e-12
2.259004751e+00	2.440150678e-12
2.269511750e+00	2.485465813e-12
2.280018749e+00	2.531339098e-12
2.290525747e+00	2.577774803e-12
2.301032746e+00	2.624777171e-12
2.311539745e+00	2.672350337e-12
2.322046744e+00	2.720498250e-12
2.332553743e+00	2.769224584e-12
2.343060742e+00	2.818532646e-12
2.353567740e+00	2.868425292e-12
2.364074739e+00	2.918904822e-12
2.374581738e+00	2.969972893e-12
2.385088737e+00	3.021630418e-12
2.395595736e+00	3.073877464e-12
2.406102735e+00	3.126713158e-12
2.416609734e+00	3.180135584e-12
2.427116732e+00	3.234141685e-12
2.437623731e+00	3.288727164e-12
2.448130730e+00	3.343886389e-12
2.458637729e+00	3.399612298e-12
2.469144728e+00	3.455896305e-12
2.479651727e+00	3.512728211e-12
2.490158725e+00	3.570096120e-12
2.500665724e+00	3.627986356e-12
2.511172723e+00	3.686383384e-12
2.521679722e+00	3.745269741e-12
2.532186721e+00	3.804625970e-12
2.542693720e+00	3.864430553e-12
2.553200718e+00	3.924659865e-12
2.563707717e+00	3.985288122e-12
2.574214716e+00	4.046287341e-12
2.584721715e+00	4.107627311e-12
2.595228714e+00	4.169275565e-12
2.605735713e+00	4.231197368e-12
2.616242712e+00	4.293355707e-12
2.626749710e+00	4.355711296e-12
2.637256709e+00	4.418222582e-12
2.647763708e+00	4.480845774e-12
2.658270707e+00	4.543534863e-12
2.668777706e+00	4.606241671e-12
2.679284705e+00	4.668915894e-12
2.689791703e+00	4.731505162e-12
2.700298702e+00	4.793955112e-12
2.710805701e+00	4.856209462e-12
2.721312700e+00	4.918210099e-12
2.731819699e+00	4.979897178e-12
2.742326698e+00	5.041209230e-12
2.752833696e+00	5.102083270e-12
2.763340695e+00	5.162454930e-12
2.773847694e+00	5.222258582e-12
2.784354693e+00	5.281427484e-12
2.794861692e+00	5.339893925e-12
2.805368691e+00	5.397589377e-12
2.815875690e+00	5.454444659e-12
2.826382688e+00	5.510390100e-12
2.836889687e+00	5.565355712e-12
2.847396686e+00	5.619271365e-12
2.857903685e+00	5.672066968e-12
2.868410684e+00	5.723672655e-12
2.878917683e+00	5.774018965e-12
2.889424681e+00	5.823037035e-12
2.899931680e+00	5.870658789e-12
2.910438679e+00	5.916817127e-12
2.920945678e+00	5.961446112e-12
2.931452677e+00	6.004481164e-12
2.941959676e+00	6.045859243e-12
2.952466674e+00	6.085519034e-12
2.962973673e+00	6.123401128e-12
2.973480672e+00	6.159448200e-12
2.983987671e+00	6.193605179e-12
2.994494670e+00	6.225819417e-12
3.005001669e+00	6.256040849e-12
3.015508667e+00	6.284222145e-12
3.026015666e+00	6.310318859e-12
3.036522665e+00	6.334289564e-12
3.047029664e+00	6.356095982e-12
3.057536663e+00	6.375703107e-12
3.068043662e+00	6.393079311e-12
3.078550661e+00	6.408196447e-12
3.089057659e+00	6.421029936e-12
3.099564658e+00	6.431558846e-12
3.110071657e+00	6.439765959e-12
3.120578656e+00	6.445637826e-12
3.131085655e+00	6.449164810e-12
3.141592654e+00	6.450341115e-12
