frequency = 599584917.1618936 Hz; phi = 1.5707963267948966 rad
theta(rad) Re(E_r) Im(E_r) Re(E_theta) Im(E_theta) Re(E_phi) Im(E_phi)
0.000000000000000e+00 0.000000000000000e+00 0.000000000000000e+00 -1.249776219876726e-02 -4.145755130684726e-02 0.000000000000000e+00 0.000000000000000e+00
1.050699884143744e-02 5.593138413865315e-22 4.512373710251981e-23 -7.650742291446536e-19 -2.536601883799402e-18 1.248275332579221e-02 4.142048175016011e-02
2.101399768287487e-02 1.117127674803043e-21 8.988373545265239e-23 -7.644954323123554e-19 -2.530783946824146e-18 1.243782499186205e-02 4.130938284843094e-02
3.152099652431230e-02 1.671946283219166e-21 1.339177856373991e-22 -7.635313911491758e-19 -2.521104162291407e-18 1.236327125350373e-02 4.112458349723429e-02
4.202799536574974e-02 2.222284014266393e-21 1.768667307812419e-22 -7.621830284163835e-19 -2.507587640351146e-18 1.225957955002238e-02 4.086663049305824e-02
5.253499420718718e-02 2.766669519599731e-21 2.183759774975799e-22 -7.604516209106090e-19 -2.490269424441554e-18 1.212742674484838e-02 4.053628649569709e-02
6.304199304862461e-02 3.303650442892090e-21 2.580969885602518e-22 -7.583387845809404e-19 -2.469194380998359e-18 1.196767363057982e-02 4.013452718877427e-02
7.354899189006205e-02 3.831798039627698e-21 2.956887513538463e-22 -7.558464556621123e-19 -2.444417058336279e-18 1.178135794446400e-02 3.966253765145374e-02
8.405599073149948e-02 4.349711712263317e-21 3.308192163411827e-22 -7.529768680118328e-19 -2.416001515214735e-18 1.156968595351021e-02 3.912170795806313e-02
9.456298957293692e-02 4.856023444449708e-21 3.631666998896288e-22 -7.497325269006365e-19 -2.384021119703006e-18 1.133402268088036e-02 3.851362802577239e-02
1.050699884143744e-01 5.349402118667864e-21 3.924212460663167e-22 -7.461161795242295e-19 -2.348558319071672e-18 1.107588085643697e-02 3.784008173395240e-02
1.155769872558118e-01 5.828557701820421e-21 4.182859421971201e-22 -7.421307825498231e-19 -2.309704381539078e-18 1.079690868520465e-02 3.710304034207537e-02
1.260839860972492e-01 6.292245284216515e-21 4.404781832643798e-22 -7.377794670541754e-19 -2.267559110798216e-18 1.049887653768267e-02 3.630465523608115e-02
1.365909849386867e-01 6.739268957561660e-21 4.587308804797629e-22 -7.330655012251826e-19 -2.222230534350914e-18 1.018366267475461e-02 3.544725003615501e-02
1.470979837801241e-01 7.168485518538014e-21 4.727936096806377e-22 -7.279922512437863e-19 -2.173834566763661e-18 9.853238128322103e-03 3.453331210155034e-02
1.576049826215615e-01 7.578807985094441e-21 4.824336955093350e-22 -7.225631407821365e-19 -2.122494649048526e-18 9.509650865761039e-03 3.356548347067213e-02
1.681119814629990e-01 7.969208913354406e-21 4.874372276685033e-22 -7.167816095799066e-19 -2.068341365454788e-18 9.155009372331560e-03 3.254655127697618e-02
1.786189803044364e-01 8.338723503861409e-21 4.876100058881573e-22 -7.106510715785824e-19 -2.011512039034084e-18 8.791465790477949e-03 3.147943768335368e-02
1.891259791458738e-01 8.686452486636090e-21 4.827784105956621e-22 -7.041748731165977e-19 -1.952150307411576e-18 8.421198758705617e-03 3.036718937952894e-02
1.996329779873113e-01 9.011564775532926e-21 4.727901966240757e-22 -6.973562516880964e-19 -1.890405680265380e-18 8.046396094942090e-03 2.921296668868410e-02
2.101399768287487e-01 9.313299883217271e-21 4.575152077006788e-22 -6.901982957901893e-19 -1.826433080071810e-18 7.669237470677771e-03 2.802003233085202e-02
2.206469756701862e-01 9.590970088829123e-21 4.368460097005107e-22 -6.827039063838901e-19 -1.760392367728452e-18 7.291877222034400e-03 2.679173989176271e-02
2.311539745116236e-01 9.843962351767856e-21 4.106984411472890e-22 -6.748757604871645e-19 -1.692447854716770e-18 6.916427442468231e-03 2.553152204672526e-02
2.416609733530610e-01 1.007173996586696e-20 3.790120797695743e-22 -6.667162774223547e-19 -1.622767803503398e-18 6.544941499364498e-03 2.424287858969480e-02
2.521679721944984e-01 1.027384394873090e-20 3.417506240342520e-22 -6.582275882341115e-19 -1.551523917911861e-18 6.179398113019168e-03 2.292936431800796e-02
2.626749710359359e-01 1.044989416297333e-20 2.989021892843011e-22 -6.494115087702050e-19 -1.478890825227474e-18 5.821686131361737e-03 2.159457682339181e-02
2.731819698773733e-01 1.059959016628192e-20 2.504795180884676e-22 -6.402695169111541e-19 -1.405045551813842e-18 5.473590127818369e-03 2.024214423962633e-02
2.836889687188108e-01 1.072271178869145e-20 1.965201048705479e-22 -6.308027344073246e-19 -1.330166994034538e-18 5.136776942423700e-03 1.887571299682928e-02
2.941959675602482e-01 1.081911943635384e-20 1.370862351127297e-22 -6.210119137577546e-19 -1.254435386279007e-18 4.812783278082950e-03 1.749893563164398e-02
3.047029664016856e-01 1.088875412213276e-20 7.226493968834920e-23 -6.108974305344194e-19 -1.178031767890902e-18 4.503004454698270e-03 1.611545870168660e-02
3.152099652431231e-01 1.093163722436614e-20 2.167865113476741e-24 -6.004592815211669e-19 -1.101137450789534e-18 4.208684413816218e-03 1.472891085145809e-02
3.257169640845605e-01 1.094786997615922e-20 -7.306893927396692e-23 -5.896970889978639e-19 -1.023933489560742e-18 3.930907055607256e-03 1.334289107555026e-02
3.362239629259979e-01 1.093763268841786e-20 -1.532853160620139e-22 -5.786101114588263e-19 -9.466001557721196e-19 3.670588978465533e-03 1.196095722339151e-02
3.467309617674353e-01 1.090118371130236e-20 -2.382973749297624e-22 -5.671972610050112e-19 -8.693164182419426e-19 3.428473679343802e-03 1.058661478800800e-02
3.572379606088728e-01 1.083885813860191e-20 -3.278979469944223e-22 -5.554571276078432e-19 -7.922594309530294e-19 3.205127260427589e-03 9.223306019289813e-03
3.677449594503102e-01 1.075106626209740e-20 -4.218571163737097e-22 -5.433880103775131e-19 -7.156040302701478e-19 3.000935674602345e-03 7.874399400167211e-03
3.782519582917477e-01 1.063829178217123e-20 -5.199228274911962e-22 -5.309879559260968e-19 -6.395222430662788e-19 2.816103529079235e-03 6.543179521775873e-03
3.887589571331851e-01 1.050108978291801e-20 -6.218215661448342e-22 -5.182548038488481e-19 -5.641828073168192e-19 2.650654453023771e-03 5.232837391306504e-03
3.992659559746226e-01 1.034008448033757e-20 -7.272591124859849e-22 -5.051862392895825e-19 -4.897507066628517e-19 2.504433021629507e-03 3.946461203694540e-03
4.097729548160600e-01 1.015596675309824e-20 -8.359213639470889e-22 -4.917798524934260e-19 -4.163867203833593e-19 2.377108215715977e-03 2.687027605673330e-03
4.202799536574974e-01 9.949491465893127e-21 -9.474752260937093e-22 -4.780332051889505e-19 -3.442469901473870e-19 2.268178382785236e-03 1.457393477986405e-03
4.307869524989348e-01 9.721474596417997e-21 -1.061569569389062e-21 -4.639439035722346e-19 -2.734826048512915e-19 2.176977652576974e-03 2.602882587992505e-04
4.412939513403723e-01 9.472790177272445e-21 -1.177836249782787e-21 -4.495096776055584e-19 -2.042392047659920e-19 2.102683747776459e-03 -9.016931715057376e-04
4.518009501818097e-01 9.204367064906776e-21 -1.295891191048440e-21 -4.347284662746863e-19 -1.366566061441011e-19 2.044327118595884e-03 -2.026097026807313e-03
4.623079490232472e-01 8.917185548177567e-21 -1.415335526763923e-21 -4.195985083854588e-19 -7.086844735349679e-20 2.000801318692377e-03 -3.110616558529924e-03
4.728149478646846e-01 8.612273809466018e-21 -1.535756799794894e-21 -4.041184384165895e-19 -7.001857517941014e-21 1.970874529330529e-03 -4.153097394138492e-03
4.833219467061221e-01 8.290704252014390e-21 -1.656730217155400e-21 -3.882873868823746e-19 5.482285144012947e-20 1.953202128978601e-03 -5.151542262083047e-03
4.938289455475595e-01 7.953589706953520e-21 -1.777819958038594e-21 -3.721050845996693e-19 1.144924685515812e-19 1.946340196697303e-03 -6.104115097249059e-03
5.043359443889969e-01 7.602079534584832e-21 -1.898580532819601e-21 -3.555719701946882e-19 1.719011426360889e-19 1.948759829814010e-03 -7.009144523726204e-03
5.148429432304343e-01 7.237355633905576e-21 -2.018558190749500e-21 -3.386893001306016e-19 2.269506156015101e-19 1.958862149593132e-03 -7.865126714388354e-03
5.253499420718718e-01 6.860628375168499e-21 -2.137292374011438e-21 -3.214592604853582e-19 2.795504296841597e-19 1.974993862879139e-03 -8.670727629396276e-03
5.358569409133092e-01 6.473132470112768e-21 -2.254317215722798e-21 -3.038850796616882e-19 3.296181082011646e-19 1.995463243140960e-03 -9.424784638245797e-03
5.463639397547466e-01 6.076122794667756e-21 -2.369163079370043e-21 -2.859711411682835e-19 3.770793094821063e-19 2.018556390967743e-03 -1.012630753239720e-02
5.568709385961841e-01 5.670870178948942e-21 -2.481358137043715e-21 -2.677230955731734e-19 4.218679537428112e-19 2.042553631905540e-03 -1.077447893781854e-02
5.673779374376215e-01 5.258657179334008e-21 -2.590429983700666e-21 -2.491479706976832e-19 4.639263227595653e-19 2.065745908593131e-03 -1.136865413894965e-02
5.778849362790589e-01 4.840773847346286e-21 -2.695907284522930e-21 -2.302542790930501e-19 5.032051322963920e-19 2.086451024471596e-03 -1.190836032763215e-02
5.883919351204964e-01 4.418513509880718e-21 -2.797321452244469e-21 -2.110521218201884e-19 5.396635773323442e-19 2.103029597855847e-03 -1.239329529245999e-02
5.988989339619338e-01 3.993168575214745e-21 -2.894208351135817e-21 -1.915532875410442e-19 5.732693502268005e-19 2.113900587957497e-03 -1.282332556575358e-02
6.094059328033713e-01 3.566026378956099e-21 -2.986110024055492e-21 -1.717713459217893e-19 6.039986320522423e-19 2.117556258366978e-03 -1.319848404697820e-02
6.199129316448087e-01 3.138365083707116e-21 -3.072576438841714e-21 -1.517217343476231e-19 6.318360574123612e-19 2.112576448593770e-03 -1.351896712288697e-02
6.304199304862461e-01 2.711449646193771e-21 -3.153167249819543e-21 -1.314218369605677e-19 6.567746531484043e-19 2.097642030565124e-03 -1.378513130596050e-02
6.409269293276836e-01 2.286527864792972e-21 -3.227453570225152e-21 -1.108910550410835e-19 6.788157514220925e-19 2.071547434123455e-03 -1.399748941388789e-02
6.514339281691210e-01 1.864826520407009e-21 -3.295019750727222e-21 -9.015086778373468e-20 6.979688777422952e-19 2.033212133960766e-03 -1.415670631381015e-02
6.619409270105584e-01 1.447547622890562e-21 -3.355465159118303e-21 -6.922488254401072e-20 7.142516145815101e-19 1.981690999514938e-03 -1.426359425590804e-02
6.724479258519959e-01 1.035864774872520e-21 -3.408405955814940e-21 -4.813887367452159e-20 7.276894413019153e-19 1.916183419414619e-03 -1.431910782160761e-02
6.829549246934333e-01 6.309196642523569e-22 -3.453476859510087e-21 -2.692080911453398e-20 7.383155511816852e-19 1.836041122799142e-03 -1.432433851223234e-02
6.934619235348707e-01 2.338186960918425e-22 -3.490332896903595e-21 -5.600863954004527e-21 7.461706463991313e-19 1.740774631307273e-03 -1.428050900433784e-02
7.039689223763081e-01 -1.543702259569659e-22 -3.518651130239779e-21 1.578857974957375e-20 7.513027118956169e-19 1.630058287397936e-03 -1.418896709825629e-02
7.144759212177456e-01 -5.326207591909762e-22 -3.538132355830001e-21 3.721294754595579e-20 7.537667690968634e-19 1.503733817233245e-03 -1.405117938650940e-02
7.249829200591831e-01 -8.999510134905319e-22 -3.548502766601248e-21 5.863550213294714e-20 7.536246105274999e-19 1.361812398980004e-03 -1.386872466879581e-02
7.354899189006204e-01 -1.255426266798944e-21 -3.549515571303110e-21 8.001738835112743e-20 7.509445164038954e-19 1.204475220431838e-03 -1.364328714016691e-02
7.459969177420579e-01 -1.598161497048235e-21 -3.540952562661025e-21 1.013176940272992e-19 7.458009543368480e-19 1.032072523013150e-03 -1.337664937881211e-02
7.565039165834954e-01 -1.927323723568778e-21 -3.522625626629401e-21 1.224935269724412e-19 7.382742633168295e-19 8.451211422036929e-04 -1.307068515960319e-02
7.670109154249328e-01 -2.242134151987278e-21 -3.494378184510692e-21 1.435001083314678e-19 7.284503231919949e-19 6.443005675488345e-04 -1.272735211916112e-02
7.775179142663702e-01 -2.541870117286366e-21 -3.456086559568573e-21 1.642908823788188e-19 7.164202108816084e-19 4.304475581340283e-04 -1.234868429776619e-02
7.880249131078076e-01 -2.825866820249055e-21 -3.407661259616688e-21 1.848176427455590e-19 7.022798445948445e-19 2.045493618020890e-04 -1.193678458291386e-02
7.985319119492451e-01 -3.093518853545220e-21 -3.349048166873364e-21 2.050306749451033e-19 6.861296173488366e-19 -3.226440153371108e-05 -1.149381707873433e-02
8.090389107906826e-01 -3.344281514368292e-21 -3.280229626344130e-21 2.248789149502562e-19 6.680740210982597e-19 -2.787311207231910e-04 -1.102199942486951e-02
8.195459096321199e-01 -3.577671901053907e-21 -3.201225423991789e-21 2.443101234574803e-19 6.482212628018916e-19 -5.334657558308829e-04 -1.052359508772822e-02
8.300529084735574e-01 -3.793269792246327e-21 -3.112093645946629e-21 2.632710753498780e-19 6.266828737621664e-19 -7.949724895352112e-04 -1.000090564633624e-02
8.405599073149949e-01 -3.990718307717533e-21 -3.012931410152196e-21 2.817077637527882e-19 6.035733135779658e-19 -1.061657365609016e-03 -9.456263094271063e-03
8.510669061564322e-01 -4.169724350588761e-21 -2.903875462012552e-21 2.995656179564297e-19 5.790095700509020e-19 -1.331841804277587e-03 -8.892022178424408e-03
8.615739049978697e-01 -4.330058831728809e-21 -2.785102625832611e-21 3.167897343590283e-19 5.531107563823421e-19 -1.603776876839881e-03 -8.310552794583882e-03
8.720809038393071e-01 -4.471556677486607e-21 -2.656830104180034e-21 3.333251194704412e-19 5.259977069889529e-19 -1.875658215646635e-03 -7.714232459065108e-03
8.825879026807446e-01 -4.594116622925061e-21 -2.519315617672564e-21 3.491169439008184e-19 4.977925732530841e-19 -2.145641430240996e-03 -7.105438874875978e-03
8.930949015221820e-01 -4.697700793370224e-21 -2.372857378172034e-21 3.641108061505872e-19 4.686184205076700e-19 -2.411857896360598e-03 -6.486542610152563e-03
9.036019003636194e-01 -4.782334077425820e-21 -2.217793888911567e-21 3.782530049159204e-19 4.385988275334021e-19 -2.672430781570027e-03 -5.859899905867331e-03
9.141088992050569e-01 -4.848103295806369e-21 -2.054503565696063e-21 3.914908185223826e-19 4.078574898237312e-19 -2.925491169474308e-03 -5.227845629110779e-03
9.246158980464944e-01 -4.895156170736582e-21 -1.883404174024148e-21 4.037727900099494e-19 3.765178278443202e-19 -3.169194143923631e-03 -4.592686387552864e-03
9.351228968879317e-01 -4.923700100996728e-21 -1.704952077744730e-21 4.150490163098074e-19 3.447026014808193e-19 -3.401734695262712e-03 -3.956693820014410e-03
9.456298957293692e-01 -4.934000748850240e-21 -1.519641295710860e-21 4.252714398752134e-19 3.125335318362227e-19 -3.621363312467327e-03 -3.322098077452386e-03
9.561368945708066e-01 -4.926380445391824e-21 -1.328002363812073e-21 4.343941410639829e-19 2.801309314999819e-19 -3.826401128033218e-03 -2.691081508042622e-03
9.666438934122441e-01 -4.901216421115857e-21 -1.130601000733934e-21 4.423736295144799e-19 2.476133443685019e-19 -4.015254486633688e-03 -2.065772559440815e-03
9.771508922536815e-01 -4.858938869601620e-21 -9.280365768512783e-22 4.491691327088406e-19 2.150971960553206e-19 -4.186428813788777e-03 -1.448239910761280e-03
9.876578910951189e-01 -4.800028852345684e-21 -7.209403867530443e-22 4.547428798838204e-19 1.826964558810495e-19 -4.338541667117272e-03 -8.404868462610394e-04
9.981648899365564e-01 -4.725016053163505e-21 -5.099737270369432e-22 4.590603794263145e-19 1.505223113835989e-19 -4.470334860048789e-03 -2.444458821950173e-04
1.008671888777994e+00 -4.634476391290087e-21 -2.958257822156870e-22 4.620906878786594e-19 1.186828562391300e-19 -4.580685556110299e-03 3.380263421775406e-04
1.019178887619431e+00 -4.529029502499669e-21 -7.921132279466931e-23 4.638066686806745e-19 8.728279242960455e-20 -4.668616241009867e-03 9.051538989462180e-04
1.029685886460869e+00 -4.409336098000366e-21 1.391317791615285e-22 4.641852387891589e-19 5.642314743768439e-20 -4.733303489618642e-03 1.455246121239020e-03
1.040192885302306e+00 -4.276095211178583e-21 3.584452103829016e-22 4.632076013425019e-19 2.620100719245274e-20 -4.774085455522350e-03 1.986701858687651e-03
1.050699884143744e+00 -4.130041342561679e-21 5.779530447962068e-22 4.608594625780453e-19 -3.290734569265886e-21 -4.790468021978935e-03 2.498013429564892e-03
1.061206882985181e+00 -3.971941513621147e-21 7.968647307921892e-22 4.571312312628577e-19 -3.196360992177400e-20 -4.782129564777349e-03 2.987770260955188e-03
1.071713881826618e+00 -3.802592240313157e-21 1.014378226989120e-21 4.520181989646835e-19 -5.973379280464720e-20 -4.748924289557374e-03 3.454662208765359e-03
1.082220880668056e+00 -3.622816437239520e-21 1.229683274677054e-21 4.455206995685115e-19 -8.652229703418883e-20 -4.690884118462192e-03 3.897482549910072e-03
1.092727879509493e+00 -3.433460263873256e-21 1.441964794159184e-21 4.376442465360152e-19 -1.122551558495021e-19 -4.608219113559722e-03 4.315130639421823e-03
1.103234878350931e+00 -3.235389923878884e-21 1.650406390768278e-21 4.283996465082561e-19 -1.368635826423844e-19 -4.501316437001089e-03 4.706614225840639e-03
1.113741877192368e+00 -3.029488429055046e-21 1.854193955363555e-21 4.178030879678013e-19 -1.602841125779322e-19 -4.370737860466422e-03 5.071051418719307e-03
1.124248876033806e+00 -2.816652339250048e-21 2.052519342959310e-21 4.058762038027428e-19 -1.824587248797700e-19 -4.217215848818645e-03 5.407672302688924e-03
1.134755874875243e+00 -2.597788489660177e-21 2.244584112148397e-21 3.926461067522384e-19 -2.033349456170461e-19 -4.041648255020766e-03 5.715820193136305e-03
1.145262873716681e+00 -2.373810716873981e-21 2.429603307052706e-21 3.781453968600441e-19 -2.228659308942961e-19 -3.845091675134968e-03 5.994952529202664e-03
1.155769872558118e+00 -2.145636594949524e-21 2.606809262694289e-21 3.624121402183628e-19 -2.410105304087764e-19 -3.628753523517696e-03 6.244641400515475e-03
1.166276871399555e+00 -1.914184192698336e-21 2.775455413941420e-21 3.454898184482244e-19 -2.577333314028030e-19 -3.393982899055694e-03 6.464573704816606e-03
1.176783870240993e+00 -1.680368863200573e-21 2.934820087552025e-21 3.274272485336420e-19 -2.730046831008380e-19 -3.142260323361426e-03 6.654550934452511e-03
1.187290869082430e+00 -1.445100076390118e-21 3.084210256321305e-21 3.082784728038102e-19 -2.868007017823882e-19 -2.875186441176182e-03 6.814488590548977e-03
1.197797867923868e+00 -1.209278305328291e-21 3.222965233944538e-21 2.881026190395954e-19 -2.991032567020403e-19 -2.594469781735847e-03 6.944415224604645e-03
1.208304866765305e+00 -9.737919765281461e-22 3.350460288963402e-21 2.669637308665471e-19 -3.098999371267474e-19 -2.301913687472416e-03 7.044471108203013e-03
1.218811865606743e+00 -7.395144944069347e-22 3.466110155975975e-21 2.449305687842800e-19 -3.191840008187909e-19 -1.999402523062457e-03 7.114906532572136e-03
1.229318864448180e+00 -5.073013496156594e-22 3.569372422405654e-21 2.220763823728852e-19 -3.269543043477386e-19 -1.688887283502532e-03 7.156079740788553e-03
1.239825863289617e+00 -2.779873206497779e-22 3.659750769180131e-21 1.984786544054707e-19 -3.332152156703048e-19 -1.372370724445657e-03 7.168454496564084e-03
1.250332862131055e+00 -5.238377775115077e-23 3.736798044030045e-21 1.742188177853220e-19 -3.379765094686487e-19 -1.051892141542839e-03 7.152597294727912e-03
1.260839860972492e+00 1.687239022788838e-22 3.800119146578861e-21 1.493819464106444e-19 -3.412532457890743e-19 -7.295119278702921e-04 7.109174219751638e-03
1.271346859813930e+00 3.845788022158016e-22 3.849373704945597e-21 1.240564212538504e-19 -3.430656325702537e-19 -4.072960397954598e-04 7.038947459927524e-03
1.281853858655367e+00 5.944548037886982e-22 3.884278524400529e-21 9.833357311659323e-20 -3.434388726977606e-19 -8.730050166530852e-05 6.942771486129785e-03
1.292360857496805e+00 7.976587930753869e-22 3.904609789477895e-21 7.230730369316919e-20 -3.424029962645959e-19 2.284439213295902e-04 6.821588905422274e-03
1.302867856338242e+00 9.935327252637420e-22 3.910205001990720e-21 4.607368673752281e-20 -3.399926787588327e-19 5.379467549420993e-04 6.676426001144161e-03
1.313374855179679e+00 1.181455542596378e-21 3.900964638606618e-21 1.973055128130464e-20 -3.362470459386559e-19 8.392724284437946e-04 6.508387972490105e-03
