frequency = 599584917.1618936 Hz; phi = 0 rad
theta(rad) Re(E_r) Im(E_r) Re(E_theta) Im(E_theta) Re(E_phi) Im(E_phi)
0.000000000000000e+00 0.000000000000000e+00 0.000000000000000e+00 -1.249776219876726e-02 -4.145755130684726e-02 0.000000000000000e+00 0.000000000000000e+00
1.050699884143744e-02 9.134288217238596e-06 7.369265511319135e-07 -1.249461035912278e-02 -4.142585250809431e-02 0.000000000000000e+00 0.000000000000000e+00
2.101399768287487e-02 1.824407944528710e-05 1.467912797636558e-06 -1.248515788951765e-02 -4.133083838680960e-02 0.000000000000000e+00 0.000000000000000e+00
3.152099652431230e-02 2.730495493693757e-05 2.187043410894273e-06 -1.246941390253543e-02 -4.117275550871807e-02 0.000000000000000e+00 0.000000000000000e+00
4.202799536574974e-02 3.629265214776430e-05 2.888452914005628e-06 -1.244739346801127e-02 -4.095201395368896e-02 0.000000000000000e+00 0.000000000000000e+00
5.253499420718718e-02 4.518314213577326e-05 3.566350357500984e-06 -1.241911743761655e-02 -4.066918602449909e-02 0.000000000000000e+00 0.000000000000000e+00
6.304199304862461e-02 5.395270612216061e-05 4.215043696516399e-06 -1.238461220180260e-02 -4.032500444564928e-02 0.000000000000000e+00 0.000000000000000e+00
7.354899189006205e-02 6.257801093826474e-05 4.828963772407135e-06 -1.234390938168233e-02 -3.992036005872349e-02 0.000000000000000e+00 0.000000000000000e+00
8.405599073149948e-02 7.103618309036949e-05 5.402687804704376e-06 -1.229704545892064e-02 -3.945629902265452e-02 0.000000000000000e+00 0.000000000000000e+00
9.456298957293692e-02 7.930488117603639e-05 5.930962301007599e-06 -1.224406134769028e-02 -3.893401952894262e-02 0.000000000000000e+00 0.000000000000000e+00
1.050699884143744e-01 8.736236639645531e-05 6.408725296788195e-06 -1.218500191310188e-02 -3.835486804369765e-02 0.000000000000000e+00 0.000000000000000e+00
1.155769872558118e-01 9.518757091233962e-05 6.831127840098011e-06 -1.211991544119535e-02 -3.772033509003877e-02 0.000000000000000e+00 0.000000000000000e+00
1.260839860972492e-01 1.027601638055547e-04 7.193554640751242e-06 -1.204885306633466e-02 -3.703205058596452e-02 0.000000000000000e+00 0.000000000000000e+00
1.365909849386867e-01 1.100606144114989e-04 7.491643807817066e-06 -1.197186816207859e-02 -3.629177875446401e-02 0.000000000000000e+00 0.000000000000000e+00
1.470979837801241e-01 1.170702528031591e-04 7.721305604355721e-06 -1.188901570233381e-02 -3.550141262406710e-02 0.000000000000000e+00 0.000000000000000e+00
1.576049826215615e-01 1.237713272164856e-04 7.878740153409524e-06 -1.180035159990967e-02 -3.466296813948789e-02 0.000000000000000e+00 0.000000000000000e+00
1.681119814629990e-01 1.301470582196088e-04 7.960454034712312e-06 -1.170593203001809e-02 -3.377857790335707e-02 0.000000000000000e+00 0.000000000000000e+00
1.786189803044364e-01 1.361816894416766e-04 7.963275717172500e-06 -1.160581274655460e-02 -3.285048457129969e-02 0.000000000000000e+00 0.000000000000000e+00
1.891259791458738e-01 1.418605346894131e-04 7.884369777992990e-06 -1.150004839937314e-02 -3.188103392375236e-02 0.000000000000000e+00 0.000000000000000e+00
1.996329779873113e-01 1.471700212960525e-04 7.721249864912082e-06 -1.138869186076545e-02 -3.087266763905404e-02 0.000000000000000e+00 0.000000000000000e+00
2.101399768287487e-01 1.520977295609077e-04 7.471790364686679e-06 -1.127179356971712e-02 -2.982791579324657e-02 0.000000000000000e+00 0.000000000000000e+00
2.206469756701862e-01 1.566324281500059e-04 7.134236744907346e-06 -1.114940090251679e-02 -2.874938911291167e-02 0.000000000000000e+00 0.000000000000000e+00
2.311539745116236e-01 1.607641053505648e-04 6.707214544360598e-06 -1.102155757818563e-02 -2.763977100818159e-02 0.000000000000000e+00 0.000000000000000e+00
2.416609733530610e-01 1.644839960857171e-04 6.189736992469295e-06 -1.088830310725588e-02 -2.650180941367311e-02 0.000000000000000e+00 0.000000000000000e+00
2.521679721944984e-01 1.677846046041021e-04 5.581211240207251e-06 -1.074967229232780e-02 -2.533830846562605e-02 0.000000000000000e+00 0.000000000000000e+00
2.626749710359359e-01 1.706597227910766e-04 4.881443196396029e-06 -1.060569478844595e-02 -2.415212004403450e-02 0.000000000000000e+00 0.000000000000000e+00
2.731819698773733e-01 1.731044440513260e-04 4.090640962975793e-06 -1.045639473123083e-02 -2.294613520881433e-02 0.000000000000000e+00 0.000000000000000e+00
2.836889687188108e-01 1.751151727364497e-04 3.209416870355973e-06 -1.030179044025615e-02 -2.172327555929844e-02 0.000000000000000e+00 0.000000000000000e+00
2.941959675602482e-01 1.766896291059028e-04 2.238788117654405e-06 -1.014189420476381e-02 -2.048648454644056e-02 0.000000000000000e+00 0.000000000000000e+00
3.047029664016856e-01 1.778268498266429e-04 1.180176026894658e-06 -9.976712158309645e-03 -1.923871876709421e-02 0.000000000000000e+00 0.000000000000000e+00
3.152099652431231e-01 1.785271840334236e-04 3.540392405363069e-08 -9.806244248369898e-03 -1.798293926961127e-02 0.000000000000000e+00 0.000000000000000e+00
3.257169640845605e-01 1.787922849883174e-04 -1.193306336567251e-06 -9.630484306306667e-03 -1.672210289976905e-02 0.000000000000000e+00 0.000000000000000e+00
3.362239629259979e-01 1.786250973918859e-04 -2.503339185938952e-06 -9.449420222413145e-03 -1.545915371568651e-02 0.000000000000000e+00 0.000000000000000e+00
3.467309617674353e-01 1.780298404224335e-04 -3.891691467216087e-06 -9.263034229949663e-03 -1.419701449997166e-02 0.000000000000000e+00 0.000000000000000e+00
3.572379606088728e-01 1.770119865768375e-04 -5.354979855787278e-06 -9.071303301402069e-03 -1.293857839672028e-02 0.000000000000000e+00 0.000000000000000e+00
3.677449594503102e-01 1.755782364283760e-04 -6.889449540347846e-06 -8.874199659131774e-03 -1.168670070045305e-02 0.000000000000000e+00 0.000000000000000e+00
3.782519582917477e-01 1.737364894037698e-04 -8.490984140948830e-06 -8.671691401893040e-03 -1.044419082320779e-02 0.000000000000000e+00 0.000000000000000e+00
3.887589571331851e-01 1.714958107142285e-04 -1.015511683169009e-05 -8.463743247598856e-03 -9.213804465248679e-03 0.000000000000000e+00 0.000000000000000e+00
3.992659559746226e-01 1.688663945806535e-04 -1.187704263780105e-05 -8.250317391778802e-03 -7.998236013907605e-03 0.000000000000000e+00 0.000000000000000e+00
4.097729548160600e-01 1.658595239079417e-04 -1.365163187506945e-05 -8.031374480149253e-03 -6.800111194072673e-03 0.000000000000000e+00 0.000000000000000e+00
4.202799536574974e-01 1.624875265720753e-04 -1.547344469855927e-05 -7.806874692715906e-03 -5.621979992714065e-03 0.000000000000000e+00 0.000000000000000e+00
4.307869524989348e-01 1.587637285001107e-04 -1.733674672776131e-05 -7.576778935693954e-03 -4.466309878761791e-03 0.000000000000000e+00 0.000000000000000e+00
4.412939513403723e-01 1.547024037276343e-04 -1.923552571407270e-05 -7.341050136554058e-03 -3.335479338339696e-03 0.000000000000000e+00 0.000000000000000e+00
4.518009501818097e-01 1.503187216316609e-04 -2.116350921670950e-05 -7.099654636379423e-03 -2.231771744134664e-03 0.000000000000000e+00 0.000000000000000e+00
4.623079490232472e-01 1.456286915441425e-04 -2.311418325266247e-05 -6.852563672686683e-03 -1.157369576319281e-03 0.000000000000000e+00 0.000000000000000e+00
4.728149478646846e-01 1.406491049576452e-04 -2.508081188574776e-05 -6.599754944820865e-03 -1.143490110424651e-04 0.000000000000000e+00 0.000000000000000e+00
4.833219467061221e-01 1.353974755462016e-04 -2.705645772003618e-05 -6.341214253002832e-03 8.953251088934258e-04 0.000000000000000e+00 0.000000000000000e+00
4.938289455475595e-01 1.298919772213690e-04 -2.903400326161603e-05 -6.076937201138211e-03 1.869803908054066e-03 0.000000000000000e+00 0.000000000000000e+00
5.043359443889969e-01 1.241513804613330e-04 -3.100617311279409e-05 -5.806930952536703e-03 2.807358705477746e-03 0.000000000000000e+00 0.000000000000000e+00
5.148429432304343e-01 1.181949871415090e-04 -3.296555696148308e-05 -5.531216026799078e-03 3.706384824743296e-03 0.000000000000000e+00 0.000000000000000e+00
5.253499420718718e-01 1.120425641082006e-04 -3.490463332773996e-05 -5.249828125287562e-03 4.565404978460624e-03 0.000000000000000e+00 0.000000000000000e+00
5.358569409133092e-01 1.057142757343524e-04 -3.681579402799798e-05 -4.962819971819871e-03 5.383072220180669e-03 0.000000000000000e+00 0.000000000000000e+00
5.463639397547466e-01 9.923061569912548e-05 -3.869136931594558e-05 -4.670263154525660e-03 6.158172458289910e-03 0.000000000000000e+00 0.000000000000000e+00
5.568709385961841e-01 9.261233823331302e-05 -4.052365365705986e-05 -4.372249954183893e-03 6.889626528016601e-03 0.000000000000000e+00 0.000000000000000e+00
5.673779374376215e-01 8.588038907210290e-05 -4.230493209150956e-05 -4.068895143826770e-03 7.576491819234229e-03 0.000000000000000e+00 0.000000000000000e+00
5.778849362790589e-01 7.905583635570062e-05 -4.402750713756694e-05 -3.760337743966049e-03 8.217963459288720e-03 0.000000000000000e+00 0.000000000000000e+00
5.883919351204964e-01 7.215980171518938e-05 -4.568372618443249e-05 -3.446742717445243e-03 8.813375051616173e-03 0.000000000000000e+00 0.000000000000000e+00
5.988989339619338e-01 6.521339177949012e-05 -4.726600932041593e-05 -3.128302587724249e-03 9.362198972404662e-03 0.000000000000000e+00 0.000000000000000e+00
6.094059328033713e-01 5.823763033454062e-05 -4.876687753782622e-05 -2.805238964269260e-03 9.864046229047749e-03 0.000000000000000e+00 0.000000000000000e+00
6.199129316448087e-01 5.125339135973193e-05 -5.017898125371269e-05 -2.477803958712957e-03 1.031866588558056e-02 0.000000000000000e+00 0.000000000000000e+00
6.304199304862461e-01 4.428133316612738e-05 -5.149512907745973e-05 -2.146281475639650e-03 1.072594406167846e-02 0.000000000000000e+00 0.000000000000000e+00
6.409269293276836e-01 3.734183384768477e-05 -5.270831675667190e-05 -1.810988362004297e-03 1.108590251319336e-02 0.000000000000000e+00 0.000000000000000e+00
6.514339281691210e-01 3.045492825695334e-05 -5.381175622263240e-05 -1.472275399674441e-03 1.139869680349058e-02 0.000000000000000e+00 0.000000000000000e+00
6.619409270105584e-01 2.364024670457476e-05 -5.479890465486880e-05 -1.130528126023075e-03 1.166461407613689e-02 0.000000000000000e+00 0.000000000000000e+00
6.724479258519959e-01 1.691695557598696e-05 -5.566349347727043e-05 -7.861674681718475e-04 1.188407044069459e-02 0.000000000000000e+00 0.000000000000000e+00
6.829549246934333e-01 1.030370004954290e-05 -5.639955719338068e-05 -4.396501772311381e-04 1.205760798453447e-02 0.000000000000000e+00 0.000000000000000e+00
6.934619235348707e-01 3.818549091127926e-06 -5.700146196166439e-05 -9.146904981753214e-05 1.218589142467272e-02 0.000000000000000e+00 0.000000000000000e+00
7.039689223763081e-01 -2.521057109110062e-06 -5.746393380833724e-05 2.578470749373022e-04 1.226970441467210e-02 0.000000000000000e+00 0.000000000000000e+00
7.144759212177456e-01 -8.698357102828465e-06 -5.778208636634475e-05 6.077335534109084e-04 1.230994552260562e-02 0.000000000000000e+00 0.000000000000000e+00
7.249829200591831e-01 -1.469731540746463e-05 -5.795144802684094e-05 9.575904199279573e-04 1.230762389698324e-02 0.000000000000000e+00 0.000000000000000e+00
7.354899189006204e-01 -2.050266685338207e-05 -5.796798838284509e-05 1.306783121579849e-03 1.226385463836156e-02 0.000000000000000e+00 0.000000000000000e+00
7.459969177420579e-01 -2.609995793335576e-05 -5.782814383912772e-05 1.654643511873636e-03 1.217985389511660e-02 0.000000000000000e+00 0.000000000000000e+00
7.565039165834954e-01 -3.147558504069345e-05 -5.752884226018457e-05 2.000471108204030e-03 1.205693370253113e-02 0.000000000000000e+00 0.000000000000000e+00
7.670109154249328e-01 -3.661682949807797e-05 -5.706752652182840e-05 2.343534616370665e-03 1.189649658496099e-02 0.000000000000000e+00 0.000000000000000e+00
7.775179142663702e-01 -4.151188929013843e-05 -5.644217682967588e-05 2.683073723676157e-03 1.170002994137425e-02 0.000000000000000e+00 0.000000000000000e+00
7.880249131078076e-01 -4.614990742174042e-05 -5.565133166541136e-05 3.018301160371075e-03 1.146910023500325e-02 0.000000000000000e+00 0.000000000000000e+00
7.985319119492451e-01 -5.052099684086952e-05 -5.469410721858909e-05 3.348405027275680e-03 1.120534700824020e-02 0.000000000000000e+00 -0.000000000000000e+00
8.090389107906826e-01 -5.461626187561526e-05 -5.357021516126859e-05 3.672551385539499e-03 1.091047674420737e-02 0.000000000000000e+00 -0.000000000000000e+00
8.195459096321199e-01 -5.842781614331286e-05 -5.227997862274423e-05 3.989887102592821e-03 1.058625659664825e-02 0.000000000000000e+00 -0.000000000000000e+00
8.300529084735574e-01 -6.194879690842045e-05 -5.082434622151284e-05 4.299542946311991e-03 1.023450800995826e-02 0.000000000000000e+00 -0.000000000000000e+00
8.405599073149949e-01 -6.517337587451381e-05 -4.920490401395596e-05 4.600636917500199e-03 9.857100251243004e-03 0.000000000000000e+00 -0.000000000000000e+00
8.510669061564322e-01 -6.809676640631219e-05 -4.742388522199776e-05 4.892277808834335e-03 9.455943876292021e-03 0.000000000000000e+00 -0.000000000000000e+00
8.615739049978697e-01 -7.071522719438069e-05 -4.548417760568530e-05 5.173568976452470e-03 9.032984151306963e-03 0.000000000000000e+00 -0.000000000000000e+00
8.720809038393071e-01 -7.302606238141281e-05 -4.338932835213913e-05 5.443612308504217e-03 8.590194452068513e-03 0.000000000000000e+00 -0.000000000000000e+00
8.825879026807446e-01 -7.502761818548277e-05 -4.114354635845388e-05 5.701512373100345e-03 8.129569662039156e-03 0.000000000000000e+00 -0.000000000000000e+00
8.930949015221820e-01 -7.671927606622492e-05 -3.875170179392310e-05 5.946380726330161e-03 7.653119590627117e-03 0.000000000000000e+00 -0.000000000000000e+00
9.036019003636194e-01 -7.810144248538383e-05 -3.621932283586879e-05 6.177340359347280e-03 7.162862432478845e-03 0.000000000000000e+00 -0.000000000000000e+00
9.141088992050569e-01 -7.917553533282915e-05 -3.355258948337575e-05 6.393530261867402e-03 6.660818288304799e-03 0.000000000000000e+00 -0.000000000000000e+00
9.246158980464944e-01 -7.994396709557043e-05 -3.075832436479558e-05 6.594110077959976e-03 6.149002767270802e-03 0.000000000000000e+00 -0.000000000000000e+00
9.351228968879317e-01 -8.041012485272978e-05 -2.784398046737695e-05 6.778264828663753e-03 5.629420690452375e-03 0.000000000000000e+00 -0.000000000000000e+00
9.456298957293692e-01 -8.057834719831846e-05 -2.481762573125400e-05 6.945209674680143e-03 5.104059914316859e-03 0.000000000000000e+00 -0.000000000000000e+00
9.561368945708066e-01 -8.045389819859509e-05 -2.168792446502419e-05 7.094194691341617e-03 4.574885292559780e-03 0.000000000000000e+00 -0.000000000000000e+00
9.666438934122441e-01 -8.004293849505465e-05 -1.846411555594810e-05 7.224509627142742e-03 4.043832793927195e-03 0.000000000000000e+00 -0.000000000000000e+00
9.771508922536815e-01 -7.935249368200860e-05 -1.515598746507832e-05 7.335488616335250e-03 3.512803792980631e-03 0.000000000000000e+00 -0.000000000000000e+00
9.876578910951189e-01 -7.839042008990103e-05 -1.177385001544921e-05 7.426514815544042e-03 2.983659549973918e-03 0.000000000000000e+00 -0.000000000000000e+00
9.981648899365564e-01 -7.716536811190370e-05 -8.328503000081440e-06 7.497024933979826e-03 2.458215895201758e-03 0.000000000000000e+00 -0.000000000000000e+00
1.008671888777994e+00 -7.568674322289154e-05 -4.831201656210630e-06 7.546513626629080e-03 1.938238132362109e-03 -0.000000000000000e+00 0.000000000000000e+00
1.019178887619431e+00 -7.396466484300544e-05 -1.293619072042965e-06 7.574537719832278e-03 1.425436174583141e-03 -0.000000000000000e+00 0.000000000000000e+00
1.029685886460869e+00 -7.200992320512850e-05 2.272194387122841e-06 7.580720238885901e-03 9.214599258654558e-04 -0.000000000000000e+00 0.000000000000000e+00
1.040192885302306e+00 -6.983393439080993e-05 5.853854525769635e-06 7.564754207743899e-03 4.278949197547390e-04 -0.000000000000000e+00 0.000000000000000e+00
1.050699884143744e+00 -6.744869370396714e-05 9.438689509474898e-06 7.526406191547041e-03 -5.374177389851544e-05 -0.000000000000000e+00 0.000000000000000e+00
1.061206882985181e+00 -6.486672755584006e-05 1.301378865068684e-05 7.465519553574635e-03 -5.220053642246616e-04 -0.000000000000000e+00 0.000000000000000e+00
1.071713881826618e+00 -6.210104403915757e-05 1.656605361962925e-05 7.382017399292534e-03 -9.755268677668726e-04 -0.000000000000000e+00 0.000000000000000e+00
1.082220880668056e+00 -5.916508236924910e-05 2.008225188737206e-05 7.275905181456406e-03 -1.413016342253604e-03 -0.000000000000000e+00 0.000000000000000e+00
1.092727879509493e+00 -5.607266137899947e-05 2.354907219229473e-05 7.147272941728508e-03 -1.833265818808468e-03 -0.000000000000000e+00 0.000000000000000e+00
1.103234878350931e+00 -5.283792724778261e-05 2.695318179768003e-05 6.996297165950618e-03 -2.235151926868615e-03 -0.000000000000000e+00 0.000000000000000e+00
1.113741877192368e+00 -4.947530065263378e-05 3.028128529229026e-05 6.823242232106303e-03 -2.617638207024724e-03 -0.000000000000000e+00 0.000000000000000e+00
1.124248876033806e+00 -4.599942352703018e-05 3.352018466693179e-05 6.628461432068897e-03 -2.979777108090347e-03 -0.000000000000000e+00 0.000000000000000e+00
1.134755874875243e+00 -4.242510561361624e-05 3.665684038387499e-05 6.412397550471106e-03 -3.320711665740944e-03 -0.000000000000000e+00 0.000000000000000e+00
1.145262873716681e+00 -3.876727099644927e-05 3.967843314079276e-05 6.175582986430433e-03 -3.639676861107448e-03 -0.000000000000000e+00 0.000000000000000e+00
1.155769872558118e+00 -3.504090479709577e-05 4.257242601718718e-05 5.918639406409885e-03 -3.936000658746298e-03 -0.000000000000000e+00 0.000000000000000e+00
1.166276871399555e+00 -3.126100021705958e-05 4.532662667919926e-05 5.642276919169966e-03 -4.209104724435599e-03 -0.000000000000000e+00 0.000000000000000e+00
1.176783870240993e+00 -2.744250610658536e-05 4.792924930837791e-05 5.347292766561095e-03 -4.458504824263036e-03 -0.000000000000000e+00 0.000000000000000e+00
1.187290869082430e+00 -2.360027523684792e-05 5.036897591156327e-05 5.034569526796553e-03 -4.683810907472587e-03 -0.000000000000000e+00 0.000000000000000e+00
1.197797867923868e+00 -1.974901344894279e-05 5.263501666257556e-05 4.705072829818094e-03 -4.884726876521256e-03 -0.000000000000000e+00 0.000000000000000e+00
1.208304866765305e+00 -1.590322984890236e-05 5.471716892243744e-05 4.359848587403611e-03 -5.061050048757107e-03 -0.000000000000000e+00 0.000000000000000e+00
1.218811865606743e+00 -1.207718821331691e-05 5.660587458178498e-05 4.000019743730358e-03 -5.212670315082180e-03 -0.000000000000000e+00 0.000000000000000e+00
1.229318864448180e+00 -8.284859764772379e-06 5.829227537100150e-05 3.626782555223326e-03 -5.339569001860405e-03 -0.000000000000000e+00 0.000000000000000e+00
1.239825863289617e+00 -4.539877470684993e-06 5.976826578452158e-05 3.241402411595888e-03 -5.441817443238364e-03 -0.000000000000000e+00 0.000000000000000e+00
1.250332862131055e+00 -8.554920126786334e-07 6.102654327160696e-05 2.845209213082823e-03 -5.519575271890002e-03 -0.000000000000000e+00 0.000000000000000e+00
1.260839860972492e+00 2.755470432721596e-06 6.206065535343990e-05 2.439592321878437e-03 -5.573088437036182e-03 -0.000000000000000e+00 0.000000000000000e+00
1.271346859813930e+00 6.280648469151438e-06 6.286504333536300e-05 2.025995108797464e-03 -5.602686959360189e-03 -0.000000000000000e+00 0.000000000000000e+00
1.281853858655367e+00 9.708183685330021e-06 6.343508229646155e-05 1.605909119022022e-03 -5.608782433218723e-03 -0.000000000000000e+00 0.000000000000000e+00
1.292360857496805e+00 1.302675667189508e-05 6.376711705279329e-05 1.180867883597334e-03 -5.591865287248377e-03 0.000000000000000e+00 0.000000000000000e+00
1.302867856338242e+00 1.622562074151467e-05 6.385849380757222e-05 7.524404059946282e-04 -5.552501815144560e-03 0.000000000000000e+00 0.000000000000000e+00
1.313374855179679e+00 1.929463325130076e-05 6.370758722143595e-05 3.222243555454816e-04 -5.491330989029068e-03 0.000000000000000e+00 0.000000000000000e+00
1.323881854021117e+00 2.222428443631756e-05 6.331382265722821e-05 -1.081609980991243e-04 -5.409061068406626e-03 0.000000000000000e+00 0.000000000000000e+00
